"Time (s)","Acceleration x (m/s^2)","Acceleration y (m/s^2)","Acceleration z (m/s^2)","Absolute acceleration (m/s^2)"
2.455572800E-2,-2.442016602E-1,1.278982544E1,-4.965576172E0,1.372210683E1
3.178839400E-2,-4.548950195E-1,1.268927002E1,-5.152328491E0,1.370295559E1
3.679327700E-2,-6.703796387E-1,1.241633606E1,-5.090072632E0,1.343590895E1
4.195074800E-2,-8.666992188E-1,1.207156372E1,-4.778823853E0,1.301195510E1
4.692511300E-2,-1.053451538E0,1.166934204E1,-4.309570312E0,1.248421804E1
5.189947800E-2,-1.230621338E0,1.125274658E1,-3.720596313E0,1.191560202E1
5.690436100E-2,-1.340759277E0,1.080264282E1,-3.088516235E0,1.131519597E1
6.190924400E-2,-1.431732178E0,1.040040588E1,-2.470809937E0,1.078532342E1
6.691412700E-2,-1.436523438E0,1.002212524E1,-1.881835938E0,1.029795613E1
7.194952700E-2,-1.470046997E0,9.691726685E0,-1.398208618E0,9.901797395E0
7.695441000E-2,-1.412582397E0,9.414001465E0,-9.911956787E-1,9.570855839E0
8.195929300E-2,-1.316818237E0,9.169799805E0,-6.607971191E-1,9.287404996E0
8.699469300E-2,-1.177947998E0,8.968673706E0,-4.548950195E-1,9.057129734E0
9.199957600E-2,-1.063018799E0,8.805877686E0,-3.064575195E-1,8.875100393E0
9.703497600E-2,-8.858489990E-1,8.633499146E0,-2.298431396E-1,8.681869834E0
1.020398590E-1,-6.943206787E-1,8.470687866E0,-2.011108398E-1,8.501475149E0
1.070752600E-1,-4.980010986E-1,8.312667847E0,-1.915435791E-1,8.329774353E0
1.120801420E-1,-3.256072998E-1,8.149856567E0,-2.011108398E-1,8.158837402E0
1.171155430E-1,-1.532287598E-1,8.001419067E0,-1.867523193E-1,8.005064808E0
1.221509430E-1,2.394104004E-2,7.857772827E0,-1.628112793E-1,7.859495816E0
1.271558260E-1,2.106933594E-1,7.733276367E0,-1.532287598E-1,7.737663350E0
1.321912260E-1,3.495483398E-1,7.632720947E0,-1.053466797E-1,7.641446920E0
1.372266270E-1,4.884185791E-1,7.565673828E0,-1.005554199E-1,7.582089723E0
1.422315100E-1,5.746154785E-1,7.532165527E0,-7.661437988E-2,7.554440432E0
1.472669100E-1,6.464385986E-1,7.536941528E0,-9.576416016E-2,7.565219180E0
1.523023100E-1,7.134704590E-1,7.584823608E0,-1.484375000E-1,7.619752159E0
1.573377110E-1,7.757263184E-1,7.661453247E0,-2.298431396E-1,7.704053806E0
1.623425930E-1,8.236083984E-1,7.781158447E0,-3.447723389E-1,7.832217154E0
1.673779940E-1,8.523406982E-1,7.924804688E0,-4.884185791E-1,7.985459706E0
1.724133940E-1,8.427581787E-1,8.087615967E0,-6.368560791E-1,8.156307929E0
1.774182770E-1,8.619079590E-1,8.288726807E0,-8.236083984E-1,8.374019835E0
1.824536770E-1,8.379669189E-1,8.504211426E0,-9.959869385E-1,8.603243023E0
1.874890780E-1,8.571166992E-1,8.743621826E0,-1.163589478E0,8.862252092E0
1.925244780E-1,8.427581787E-1,9.006988525E0,-1.331176758E0,9.143747328E0
1.975293610E-1,8.188171387E-1,9.279922485E0,-1.489196777E0,9.434253011E0
2.025647610E-1,8.092346191E-1,9.538497925E0,-1.632843018E0,9.711023615E0
2.076001620E-1,7.469940186E-1,9.768341064E0,-1.757339478E0,9.953227077E0
2.126050450E-1,7.038879395E-1,9.964660645E0,-1.853118896E0,1.015991977E1
2.176404450E-1,6.703796387E-1,1.009873962E1,-1.924942017E0,1.030239548E1
2.226758450E-1,6.081237793E-1,1.018493652E1,-1.924942017E0,1.038307027E1
2.277112460E-1,5.171508789E-1,1.021846008E1,-1.886627197E0,1.040402488E1
2.327161290E-1,5.171508789E-1,1.020408630E1,-1.829162598E0,1.037962707E1
2.377515290E-1,4.932098389E-1,1.014662170E1,-1.733398438E0,1.030542857E1
2.427869290E-1,4.596862793E-1,1.003170776E1,-1.594543457E0,1.016804017E1
2.478223300E-1,4.453277588E-1,9.892837524E0,-1.422149658E0,1.000445205E1
2.528272130E-1,4.118041992E-1,9.753982544E0,-1.225830078E0,9.839330137E0
2.578626130E-1,3.734893799E-1,9.595962524E0,-9.959869385E-1,9.654738788E0
2.628980130E-1,3.064575195E-1,9.428359985E0,-7.374114990E-1,9.462117308E0
2.679334140E-1,2.489929199E-1,9.265563965E0,-4.788360596E-1,9.281269150E0
2.729382970E-1,1.771697998E-1,9.112335205E0,-2.537841797E-1,9.117590056E0
2.779736970E-1,1.197052002E-1,8.983047485E0,-4.309082031E-2,8.983948368E0
2.830090970E-1,5.746459961E-2,8.877700806E0,1.101379395E-1,8.878569938E0
2.880139800E-1,-4.791259766E-3,8.815444946E0,2.298431396E-1,8.818442063E0
2.930493810E-1,1.914978027E-2,8.772354126E0,3.016662598E-1,8.777560376E0
2.980847810E-1,4.791259766E-3,8.753204346E0,3.208160400E-1,8.759082840E0
3.031201810E-1,-3.352355957E-2,8.753204346E0,3.447723389E-1,8.760055828E0
3.081250640E-1,-1.435852051E-2,8.767562866E0,3.112487793E-1,8.773097548E0
3.131604650E-1,-1.914978027E-2,8.810668945E0,2.537841797E-1,8.814344013E0
3.181958650E-1,1.435852051E-2,8.868118286E0,2.059020996E-1,8.870519927E0
3.232007480E-1,2.394104004E-2,8.930374146E0,1.244964600E-1,8.931273981E0
3.282361480E-1,6.703186035E-2,9.002197266E0,9.576416016E-2,9.002956162E0
3.332715490E-1,1.197052002E-1,9.078811646E0,4.788208008E-2,9.079727029E0
3.383069490E-1,1.292877197E-1,9.160217285E0,-1.914978027E-2,9.161149641E0
3.433118320E-1,2.059020996E-1,9.275131226E0,-6.703186035E-2,9.277658551E0
3.483472320E-1,3.303985596E-1,9.399642944E0,-1.771697998E-1,9.407116446E0
3.533826330E-1,4.405364990E-1,9.543289185E0,-2.777252197E-1,9.557487754E0
3.584180330E-1,5.554504395E-1,9.691726685E0,-3.974304199E-1,9.715762567E0
3.634229160E-1,6.751708984E-1,9.868896484E0,-5.602416992E-1,9.907817334E0
3.684583160E-1,7.134704590E-1,1.004127502E1,-7.517852783E-1,1.009462358E1
3.734937170E-1,7.900848389E-1,1.020408630E1,-9.193725586E-1,1.027583852E1
3.784985990E-1,7.900848389E-1,1.037168884E1,-1.101333618E0,1.045988046E1
3.835340000E-1,7.852935791E-1,1.048181152E1,-1.230621338E0,1.058298104E1
3.885694000E-1,8.571166992E-1,1.059674072E1,-1.307235718E0,1.071141579E1
3.936048010E-1,8.954315186E-1,1.063504028E1,-1.335968018E0,1.075596067E1
3.986096830E-1,9.481048584E-1,1.063504028E1,-1.297653198E0,1.075578395E1
4.036450840E-1,1.110916138E0,1.062547302E1,-1.182739258E0,1.074865963E1
4.086804840E-1,1.254562378E0,1.058236694E1,-9.816284180E-1,1.070158919E1
4.136853670E-1,1.388641357E0,1.053927612E1,-7.709350586E-1,1.065828349E1
4.187207670E-1,1.493988037E0,1.048660278E1,-5.793914795E-1,1.060832374E1
4.237561680E-1,1.613693237E0,1.044830322E1,-3.687133789E-1,1.057861029E1
4.287915680E-1,1.666366577E0,1.041957092E1,-1.675872803E-1,1.055330855E1
4.337964510E-1,1.675933838E0,1.040040588E1,-3.352355957E-2,1.053462484E1
4.388318510E-1,1.618484497E0,1.035252380E1,3.831481934E-2,1.047834477E1
4.438672520E-1,1.575378418E0,1.031422424E1,2.394104004E-2,1.043386851E1
4.489026520E-1,1.479614258E0,1.028070068E1,9.582519531E-3,1.038663356E1
4.539075350E-1,1.402999878E0,1.028549194E1,7.182312012E-2,1.038098799E1
4.589429350E-1,1.331176758E0,1.034774780E1,1.101379395E-1,1.043360180E1
4.639783360E-1,1.374267578E0,1.054885864E1,1.149291992E-1,1.063862015E1
4.689832180E-1,1.297653198E0,1.083615112E1,-4.791259766E-3,1.091357402E1
4.740186190E-1,1.259353638E0,1.115219116E1,-2.920989990E-1,1.122687228E1
4.790540190E-1,1.192306519E0,1.146343994E1,-6.799468994E-1,1.154531844E1
4.840894200E-1,1.168365479E0,1.169328308E1,-1.115692139E0,1.180435157E1
4.890943020E-1,1.297653198E0,1.188960266E1,-1.484405518E0,1.205197142E1
4.941297030E-1,1.532287598E0,1.209071350E1,-1.814804077E0,1.232180068E1
4.991651030E-1,1.838745117E0,1.222958374E1,-2.106903076E0,1.254522788E1
5.042005040E-1,2.240966797E0,1.241633606E1,-2.398986816E0,1.284299307E1
5.092053860E-1,2.561798096E0,1.258392334E1,-2.729385376E0,1.312887964E1
5.142407870E-1,2.791641235E0,1.274194336E1,-3.074157715E0,1.340152331E1
5.192761870E-1,2.983169556E0,1.292869568E1,-3.423706055E0,1.370300097E1
5.242810700E-1,3.117248535E0,1.311064148E1,-3.749313354E0,1.398797730E1
5.293164700E-1,3.083724976E0,1.327345276E1,-4.050994873E0,1.421634508E1
5.343518710E-1,2.997543335E0,1.345062256E1,-4.271255493E0,1.442733991E1
5.393872710E-1,2.743759155E0,1.357511902E1,-4.343078613E0,1.451462719E1
5.443921540E-1,2.437301636E0,1.360385132E1,-4.333511353E0,1.448394044E1
5.494275540E-1,2.097320557E0,1.358470154E1,-4.252105713E0,1.438830332E1
5.544629550E-1,1.680725098E0,1.344105530E1,-4.108444214E0,1.415507394E1
5.594678380E-1,1.302444458E0,1.320162964E1,-3.979156494E0,1.384965967E1
5.645032380E-1,8.762817383E-1,1.285685730E1,-3.916915894E0,1.346881136E1
5.695386380E-1,5.363006592E-1,1.240675354E1,-3.897766113E0,1.301567257E1
5.745740390E-1,2.346343994E-1,1.191833496E1,-3.945648193E0,1.255666760E1
5.795789220E-1,-3.831481934E-2,1.138203430E1,-3.979156494E0,1.205760587E1
5.846143220E-1,-2.825164795E-1,1.083137512E1,-3.998321533E0,1.154924576E1
5.896497220E-1,-5.075683594E-1,1.028549194E1,-3.955215454E0,1.103144140E1
5.946851230E-1,-7.613525391E-1,9.730041504E0,-3.916915894E0,1.051644405E1
5.996900060E-1,-1.000778198E0,9.169799805E0,-3.835510254E0,9.989891109E0
6.047254060E-1,-1.201889038E0,8.623916626E0,-3.711013794E0,9.465098975E0
6.097608060E-1,-1.364700317E0,8.087615967E0,-3.567367554E0,8.944162915E0
6.147656890E-1,-1.541870117E0,7.541732788E0,-3.409347534E0,8.418951687E0
6.198010900E-1,-1.699890137E0,7.000640869E0,-3.208236694E0,7.886151263E0
6.248364900E-1,-1.795654297E0,6.473922729E0,-3.031066895E0,7.370442075E0
6.298718900E-1,-1.795654297E0,5.990295410E0,-2.820373535E0,6.860212849E0
6.348767730E-1,-1.719039917E0,5.559341431E0,-2.614471436E0,6.379407203E0
6.399121740E-1,-1.551437378E0,5.176269531E0,-2.451660156E0,5.933916221E0
6.449475740E-1,-1.393432617E0,4.841079712E0,-2.274490356E0,5.527297135E0
6.499829740E-1,-1.130065918E0,4.601654053E0,-2.097320557E0,5.181797229E0
6.549878570E-1,-8.283996582E-1,4.453216553E0,-1.948883057E0,4.931077857E0
6.600232580E-1,-5.219421387E-1,4.376602173E0,-1.843536377E0,4.777624572E0
6.650586580E-1,-2.250518799E-1,4.400543213E0,-1.790863037E0,4.756324141E0
6.700635410E-1,1.435852051E-2,4.558563232E0,-1.742980957E0,4.880439276E0
6.750989410E-1,1.819610596E-1,4.836288452E0,-1.747772217E0,5.145629557E0
6.801343420E-1,2.825164795E-1,5.233718872E0,-1.762130737E0,5.529623272E0
6.851697420E-1,3.495483398E-1,5.731719971E0,-1.795654297E0,6.016574791E0
6.901746250E-1,4.022216797E-1,6.306320190E0,-1.838745117E0,6.581218750E0
6.952100250E-1,4.165954590E-1,6.957550049E0,-1.862686157E0,7.214613931E0
7.002454260E-1,3.878631592E-1,7.618347168E0,-1.896209717E0,7.860360214E0
7.052808260E-1,4.165954590E-1,8.331817627E0,-1.953674316E0,8.567939080E0
7.102857090E-1,4.692687988E-1,9.069229126E0,-2.092529297E0,9.319324493E0
7.153211090E-1,5.410919189E-1,9.821014404E0,-2.312805176E0,1.010416608E1
7.203565100E-1,6.560058594E-1,1.056321716E1,-2.614471436E0,1.090171369E1
7.253919100E-1,8.283996582E-1,1.129106140E1,-2.916137695E0,1.169094404E1
7.303967930E-1,1.034301758E0,1.197579956E1,-3.169921875E0,1.243132977E1
7.354321930E-1,1.264144897E0,1.253125000E1,-3.457229614E0,1.306073220E1
7.404675930E-1,1.450881958E0,1.291432190E1,-3.739746094E0,1.352296082E1
7.454724760E-1,1.594543457E0,1.308670044E1,-3.955215454E0,1.376401201E1
7.505078770E-1,1.714248657E0,1.309149170E1,-4.050994873E0,1.381073361E1
7.555432770E-1,1.833953857E0,1.297178650E1,-3.983947754E0,1.369315418E1
7.605786770E-1,1.848327637E0,1.269406128E1,-3.782836914E0,1.337405555E1
7.655835600E-1,1.829162598E0,1.234928894E1,-3.423706055E0,1.294498112E1
7.706189610E-1,1.733398438E0,1.198536682E1,-2.983169556E0,1.247208838E1
7.756543610E-1,1.704666138E0,1.160708618E1,-2.542648315E0,1.200397421E1
7.806897610E-1,1.623275757E0,1.125753784E1,-2.130844116E0,1.157184856E1
7.856946440E-1,1.503555298E0,1.090319824E1,-1.781280518E0,1.114959061E1
7.907300450E-1,1.359909058E0,1.058715820E1,-1.561019897E0,1.078768069E1
7.957654450E-1,1.221038818E0,1.027590942E1,-1.379058838E0,1.043968647E1
8.007703280E-1,1.067810059E0,1.000297546E1,-1.297653198E0,1.014315731E1
8.058057280E-1,9.481048584E-1,9.768341064E0,-1.259353638E0,9.894713819E0
8.108411290E-1,8.954315186E-1,9.552871704E0,-1.221038818E0,9.672129610E0
8.158765290E-1,8.092346191E-1,9.380477905E0,-1.192306519E0,9.490512169E0
8.208814120E-1,7.278442383E-1,9.222457886E0,-1.144424438E0,9.321651891E0
8.259168120E-1,6.799468994E-1,9.059661865E0,-1.082183838E0,9.149367342E0
8.309522130E-1,5.985565186E-1,8.901641846E0,-1.072601318E0,8.985987483E0
8.359876130E-1,5.746154785E-1,8.757995605E0,-9.959869385E-1,8.833156851E0
8.409924960E-1,5.410919189E-1,8.609542847E0,-9.193725586E-1,8.675382089E0
8.460278960E-1,4.836273193E-1,8.475479126E0,-8.523406982E-1,8.531947402E0
8.510632970E-1,4.309539795E-1,8.398864746E0,-7.948760986E-1,8.447394768E0
8.560681790E-1,3.639221191E-1,8.298309326E0,-7.230529785E-1,8.337696480E0
8.611035800E-1,2.873077393E-1,8.240844727E0,-6.751708984E-1,8.273446881E0
8.661389800E-1,2.059020996E-1,8.197753906E0,-6.416473389E-1,8.225404312E0
8.711743810E-1,1.340789795E-1,8.135498047E0,-6.368560791E-1,8.161488302E0
8.761792630E-1,3.831481934E-2,8.111557007E0,-6.799468994E-1,8.140095386E0
8.812146640E-1,-3.352355957E-2,8.087615967E0,-7.182617188E-1,8.119516965E0
8.862500640E-1,-8.140563965E-2,8.082824707E0,-7.517852783E-1,8.118119439E0
8.912854650E-1,-1.340789795E-1,8.078033447E0,-7.948760986E-1,8.118154320E0
8.962903470E-1,-1.244964600E-1,8.073242188E0,-8.523406982E-1,8.119065430E0
9.013257480E-1,-1.915435791E-1,8.087615967E0,-9.145812988E-1,8.141417562E0
9.063611480E-1,-2.106933594E-1,8.111557007E0,-9.672546387E-1,8.171739735E0
9.113660310E-1,-2.346343994E-1,8.135498047E0,-1.019927979E0,8.202538318E0
9.164014310E-1,-2.442016602E-1,8.173797607E0,-1.048660278E0,8.244409631E0
9.214368320E-1,-2.729339600E-1,8.197753906E0,-1.067810059E0,8.271510163E0
9.264722320E-1,-2.873077393E-1,8.250411987E0,-1.058242798E0,8.322963506E0
9.314771150E-1,-2.729339600E-1,8.298309326E0,-1.029510498E0,8.366380489E0
9.365125150E-1,-2.489929199E-1,8.331817627E0,-9.959869385E-1,8.394830101E0
9.415479160E-1,-2.394256592E-1,8.374923706E0,-9.193725586E-1,8.428636760E0
9.465833160E-1,-2.250518799E-1,8.418014526E0,-8.858489990E-1,8.467487547E0
9.515881990E-1,-2.011108398E-1,8.475479126E0,-8.236083984E-1,8.517776868E0
9.566235990E-1,-1.484375000E-1,8.547302246E0,-7.278442383E-1,8.579520185E0
9.616590000E-1,-8.140563965E-2,8.609542847E0,-6.464385986E-1,8.634161092E0
9.666944000E-1,-8.140563965E-2,8.671798706E0,-5.602416992E-1,8.690258364E0
9.716992830E-1,-3.352355957E-2,8.743621826E0,-4.740447998E-1,8.756526991E0
9.767346830E-1,7.182312012E-2,8.815444946E0,-3.591308594E-1,8.823049537E0
9.817700840E-1,1.484375000E-1,8.911224365E0,-2.825164795E-1,8.916937195E0
9.867749670E-1,2.154846191E-1,8.997406006E0,-2.442016602E-1,9.003298446E0
9.918103670E-1,3.543395996E-1,9.093185425E0,-1.771697998E-1,9.101811186E0
9.968457670E-1,4.261627197E-1,9.198516846E0,-1.053466797E-1,9.208986087E0
1.001881168E0,5.123596191E-1,9.303863525E0,-4.309082031E-2,9.318060190E0
1.006886051E0,6.224975586E-1,9.423583984E0,1.435852051E-2,9.444132808E0
1.011921451E0,7.517852783E-1,9.533706665E0,3.831481934E-2,9.563378687E0
1.016956851E0,8.714904785E-1,9.639053345E0,5.746459961E-2,9.678540552E0
1.021992252E0,8.666992188E-1,9.758773804E0,2.873229980E-2,9.797227120E0
1.026997135E0,8.236083984E-1,9.868896484E0,-9.582519531E-3,9.903208593E0
1.032032535E0,7.230529785E-1,9.979034424E0,-7.661437988E-2,1.000548866E1
1.037067935E0,5.746154785E-1,1.007958984E1,-1.484375000E-1,1.009704650E1
1.042072818E0,4.118041992E-1,1.021846008E1,-2.729339600E-1,1.023039599E1
1.047108218E0,2.825164795E-1,1.035731506E1,-3.926544189E-1,1.036860494E1
1.052143619E0,1.628112793E-1,1.047224426E1,-5.506591797E-1,1.048797564E1
1.057179019E0,4.791259766E-3,1.063983154E1,-7.134704590E-1,1.066372722E1
1.062183902E0,-1.340789795E-1,1.080743408E1,-8.619079590E-1,1.084257783E1
1.067219302E0,-2.059020996E-1,1.094149780E1,-1.005569458E0,1.098953774E1
1.072254703E0,-3.399810791E-1,1.103248596E1,-1.091751099E0,1.109158483E1
1.077290103E0,-3.878631592E-1,1.108993530E1,-1.154006958E0,1.115656017E1
1.082294986E0,-4.740447998E-1,1.107557678E1,-1.144424438E0,1.114463220E1
1.087330386E0,-5.410919189E-1,1.102290344E1,-1.058242798E0,1.108679659E1
1.092365787E0,-6.177062988E-1,1.090798950E1,-9.337310791E-1,1.096529296E1
1.097401187E0,-6.416473389E-1,1.076911926E1,-8.044586182E-1,1.081816965E1
1.102406070E0,-7.086791992E-1,1.059674072E1,-6.224975586E-1,1.063863917E1
1.107441470E0,-7.038879395E-1,1.046745300E1,-4.118041992E-1,1.049917203E1
1.112476871E0,-7.326202393E-1,1.034295654E1,-2.537841797E-1,1.037197613E1
1.117512271E0,-7.422027588E-1,1.025675964E1,-9.097290039E-2,1.028398072E1
1.122517154E0,-8.810729980E-1,1.024240112E1,2.394104004E-2,1.028025503E1
1.127552554E0,-9.768371582E-1,1.024240112E1,-9.582519531E-3,1.028888154E1
1.132587955E0,-1.043869019E0,1.023281860E1,-1.292877197E-1,1.028673682E1
1.137623355E0,-1.058242798E0,1.026155090E1,-2.394256592E-1,1.031875135E1
1.142628238E0,-8.810729980E-1,1.029985046E1,-3.447723389E-1,1.034321406E1
1.147663638E0,-6.655883789E-1,1.039083862E1,-2.585754395E-1,1.041534428E1
1.152699039E0,-5.219421387E-1,1.051533508E1,-1.101379395E-1,1.052885682E1
1.157703922E0,-4.596862793E-1,1.072602844E1,-1.292877197E-1,1.073665278E1
1.162739322E0,-5.410919189E-1,1.098937988E1,-4.692687988E-1,1.101269558E1
1.167774722E0,-5.793914795E-1,1.126712036E1,-1.096542358E0,1.133517097E1
1.172810123E0,-5.027770996E-1,1.153047180E1,-1.891418457E0,1.169538493E1
1.177815006E0,-4.596862793E-1,1.181777954E1,-2.652770996E0,1.212057832E1
1.182850406E0,-4.501037598E-1,1.208593750E1,-3.304000854E0,1.253749976E1
1.187885806E0,-3.687133789E-1,1.228225708E1,-3.811569214E0,1.286537401E1
1.192921207E0,-3.830718994E-1,1.241633606E1,-4.151550293E0,1.309761486E1
1.197926090E0,-2.873077393E-1,1.248336792E1,-4.400543213E0,1.323940334E1
1.202961490E0,-4.501037598E-1,1.245942688E1,-4.515457153E0,1.326006278E1
1.207996890E0,-4.309539795E-1,1.243069458E1,-4.558563232E0,1.324720302E1
1.213032291E0,-3.447723389E-1,1.229661560E1,-4.620803833E0,1.314067925E1
1.218037174E0,-3.064575195E-1,1.209550476E1,-4.596862793E0,1.294319509E1
1.223072574E0,-2.394256592E-1,1.194706726E1,-4.419692993E0,1.274062114E1
1.228107974E0,0.000000000E0,1.175074768E1,-4.218582153E0,1.248505132E1
1.233112857E0,1.819610596E-1,1.158793640E1,-3.940856934E0,1.224106749E1
1.238148258E0,4.884185791E-1,1.152568054E1,-3.677490234E0,1.210800558E1
1.243183658E0,8.571166992E-1,1.145385742E1,-3.476379395E0,1.200044635E1
1.248219058E0,1.292861938E0,1.143949890E1,-3.366241455E0,1.199438238E1
1.253223941E0,1.470046997E0,1.142034912E1,-3.327941895E0,1.198585039E1
1.258259342E0,1.728607178E0,1.143949890E1,-3.414138794E0,1.206261007E1
1.263294742E0,1.857894897E0,1.138682556E1,-3.586517334E0,1.208199803E1
1.268330142E0,1.987182617E0,1.124316406E1,-3.811569214E0,1.203684729E1
1.273335025E0,2.030288696E0,1.102769470E1,-4.017471313E0,1.191101164E1
1.278370426E0,2.030288696E0,1.078347778E1,-4.103668213E0,1.171518494E1
1.283405826E0,1.910568237E0,1.043872070E1,-4.108444214E0,1.137965179E1
1.288410709E0,1.747772217E0,1.006044006E1,-4.003112793E0,1.096777434E1
1.293446109E0,1.580169678E0,9.648635864E0,-3.797210693E0,1.048865670E1
1.298481510E0,1.383850098E0,9.227249146E0,-3.533843994E0,9.977235151E0
1.303516910E0,1.235412598E0,8.767562866E0,-3.232177734E0,9.425676411E0
1.308521793E0,1.115692139E0,8.331817627E0,-2.935287476E0,8.903924218E0
1.313557193E0,1.000778198E0,7.900863647E0,-2.614471436E0,8.382163460E0
1.318592593E0,9.624633789E-1,7.465118408E0,-2.303222656E0,7.871414308E0
1.323627994E0,9.337310791E-1,7.062896729E0,-2.025497437E0,7.406686425E0
1.328632877E0,8.762817383E-1,6.689407349E0,-1.790863037E0,6.980202775E0
1.333668277E0,8.523406982E-1,6.363784790E0,-1.661575317E0,6.632124400E0
1.338703677E0,8.092346191E-1,6.062118530E0,-1.584960938E0,6.317930272E0
1.343708560E0,7.661437988E-1,5.832275391E0,-1.594543457E0,6.094668276E0
1.348743961E0,6.847381592E-1,5.669464111E0,-1.661575317E0,5.947480323E0
1.353779361E0,5.793914795E-1,5.554550171E0,-1.786071777E0,5.863341580E0
1.358814761E0,4.836273193E-1,5.516235352E0,-1.939300537E0,5.867165790E0
1.363819644E0,3.639221191E-1,5.559341431E0,-2.068588257E0,5.942875889E0
1.368855045E0,2.968750000E-1,5.664688110E0,-2.212249756E0,6.088585643E0
1.373890445E0,2.202606201E-1,5.880157471E0,-2.322372437E0,6.325992440E0
1.378895328E0,1.388702393E-1,6.191406250E0,-2.418136597E0,6.648321660E0
1.383930728E0,6.703186035E-2,6.569686890E0,-2.499542236E0,7.029437423E0
1.388966129E0,2.873229980E-2,7.015014648E0,-2.557006836E0,7.466561459E0
