"Time (s)","Acceleration x (m/s^2)","Acceleration y (m/s^2)","Acceleration z (m/s^2)","Absolute acceleration (m/s^2)"
2.268735100E-2,-3.351898193E-1,8.049301147E0,-2.173934937E0,8.344434929E0
2.985898200E-2,-2.585754395E-1,7.934387207E0,-8.714904785E-1,7.986291834E0
3.486386500E-2,-2.968750000E-1,7.958328247E0,2.154846191E-1,7.966778325E0
4.002133600E-2,-4.261627197E-1,8.140289307E0,1.216247559E0,8.241673543E0
4.499570100E-2,-6.033325195E-1,8.384490967E0,2.063796997E0,8.655804812E0
5.000058400E-2,-8.666992188E-1,8.657440186E0,2.681503296E0,9.104553697E0
5.497494900E-2,-1.221038818E0,8.901641846E0,3.083724976E0,9.499448567E0
5.997983200E-2,-1.642425537E0,9.112335205E0,3.313568115E0,9.834223314E0
6.501523200E-2,-2.116470337E0,9.308654785E0,3.270477295E0,1.009091286E1
7.002011500E-2,-2.580947876E0,9.461883545E0,3.011901855E0,1.025963376E1
7.502499800E-2,-3.011901855E0,9.567230225E0,2.504333496E0,1.033804301E1
8.006039800E-2,-3.418914795E0,9.639053345E0,1.867477417E0,1.039652825E1
8.506528100E-2,-3.835510254E0,9.677368164E0,1.206680298E0,1.047944039E1
9.010068100E-2,-4.256896973E0,9.715667725E0,5.650329590E-1,1.062236478E1
9.510556400E-2,-4.673477173E0,9.730041504E0,3.831481934E-2,1.079428388E1
1.001409650E-1,-4.951202393E0,9.744400024E0,-4.501037598E-1,1.093939351E1
1.051458470E-1,-5.080490112E0,9.734817505E0,-7.805023193E-1,1.100850741E1
1.101812480E-1,-5.080490112E0,9.677368164E0,-1.043869019E0,1.097964011E1
1.152166480E-1,-4.845870972E0,9.552871704E0,-1.221038818E0,1.078103701E1
1.202215310E-1,-4.386184692E0,9.375701904E0,-1.187530518E0,1.041885939E1
1.252569310E-1,-3.778045654E0,9.126693726E0,-1.072601318E0,9.935826131E0
1.302923320E-1,-3.165130615E0,8.820236206E0,-8.666992188E-1,9.410939702E0
1.352972150E-1,-2.542648315E0,8.504211426E0,-5.410919189E-1,8.892662869E0
1.403326150E-1,-2.006347656E0,8.154647827E0,-1.867523193E-1,8.399915984E0
1.453680150E-1,-1.374267578E0,7.848190308E0,3.016662598E-1,7.973312048E0
1.503728980E-1,-8.140258789E-1,7.575256348E0,6.512298584E-1,7.646649410E0
1.554082990E-1,-4.165954590E-1,7.345413208E0,9.097900391E-1,7.413256025E0
1.604436990E-1,2.394104004E-2,7.177810669E0,1.115692139E0,7.264042134E0
1.654790990E-1,4.548950195E-1,7.024581909E0,1.211471558E0,7.142782638E0
1.704839820E-1,7.852935791E-1,6.971908569E0,1.350326538E0,7.144758699E0
1.755193830E-1,1.086975098E0,7.038955688E0,1.546661377E0,7.288386204E0
1.805547830E-1,1.278503418E0,7.139511108E0,1.613693237E0,7.430423657E0
1.855596660E-1,1.388641357E0,7.264007568E0,1.699890137E0,7.588396224E0
1.905950660E-1,1.498764038E0,7.445968628E0,1.800445557E0,7.805789304E0
1.956304670E-1,1.517929077E0,7.642288208E0,1.877059937E0,8.014488863E0
2.006658670E-1,1.546661377E0,7.814682007E0,1.862686157E0,8.181137818E0
2.056707500E-1,1.680725098E0,8.001419067E0,1.857894897E0,8.384468820E0
2.107061500E-1,1.733398438E0,8.111557007E0,1.857894897E0,8.500223566E0
2.157415510E-1,1.833953857E0,8.188171387E0,1.857894897E0,8.594260344E0
2.207769510E-1,1.920150757E0,8.236053467E0,1.901000977E0,8.667950182E0
2.257818340E-1,1.996765137E0,8.236053467E0,1.810012817E0,8.665782949E0
2.308172340E-1,2.054229736E0,8.207321167E0,1.690307617E0,8.627694964E0
2.358526350E-1,2.092529297E0,8.125915527E0,1.637634277E0,8.549329099E0
2.408880350E-1,2.068588257E0,8.020568848E0,1.637634277E0,8.443365919E0
2.458929180E-1,1.886627197E0,7.881713867E0,1.671157837E0,8.274874270E0
2.509283180E-1,1.690307617E0,7.718902588E0,1.719039917E0,8.086636831E0
2.559637190E-1,1.402999878E0,7.527374268E0,1.742980957E0,7.852881932E0
2.609991190E-1,1.149215698E0,7.388504028E0,1.819595337E0,7.695558179E0
2.660040020E-1,9.097900391E-1,7.311889648E0,1.877059937E0,7.603604550E0
2.710394020E-1,7.038879395E-1,7.264007568E0,1.987182617E0,7.563739746E0
2.760748030E-1,5.602416992E-1,7.283157349E0,2.068588257E0,7.591923939E0
2.811102030E-1,4.309539795E-1,7.340621948E0,2.087738037E0,7.643893120E0
2.861150860E-1,3.830718994E-1,7.498641968E0,2.106903076E0,7.798423944E0
2.911504860E-1,4.118041992E-1,7.762008667E0,2.039855957E0,8.036129265E0
2.961858870E-1,4.405364990E-1,8.063674927E0,1.968032837E0,8.312044212E0
3.012212870E-1,4.165954590E-1,8.418014526E0,1.920150757E0,8.644275520E0
3.062261700E-1,3.208160400E-1,8.781936646E0,1.891418457E0,8.989037655E0
3.112615700E-1,2.346343994E-1,9.188949585E0,1.905792236E0,9.387432654E0
3.162969710E-1,4.788208008E-2,9.538497925E0,1.958450317E0,9.737595340E0
3.213323710E-1,-7.182312012E-2,9.878479004E0,2.039855957E0,1.008714619E1
3.263372540E-1,-1.532287598E-1,1.021366882E1,2.126052856E0,1.043372468E1
3.313726540E-1,-2.154846191E-1,1.046266174E1,2.145202637E0,1.068249122E1
3.364080540E-1,-2.250518799E-1,1.066856384E1,2.173934937E0,1.089012837E1
3.414434550E-1,-1.819610596E-1,1.083615112E1,2.202667236E0,1.105925060E1
3.464483380E-1,-1.723785400E-1,1.097981262E1,2.202667236E0,1.119989922E1
3.514837380E-1,-1.388702393E-1,1.108515930E1,2.231399536E0,1.130836794E1
3.565191380E-1,2.873229980E-2,1.114260864E1,2.250549316E0,1.136765258E1
3.615545390E-1,2.442016602E-1,1.114739990E1,2.379837036E0,1.140121850E1
3.665594220E-1,4.596862793E-1,1.106599426E1,2.643203735E0,1.138657396E1
3.715948220E-1,6.799468994E-1,1.097502136E1,2.968811035E0,1.138978756E1
3.766302220E-1,8.810729980E-1,1.091276550E1,3.356674194E0,1.145128823E1
3.816656230E-1,1.091751099E0,1.082179260E1,3.782836914E0,1.151577052E1
3.866705060E-1,1.283294678E0,1.081700134E1,4.218582153E0,1.168121563E1
3.917059060E-1,1.470046997E0,1.090798950E1,4.572921753E0,1.191876195E1
3.967413060E-1,1.513137817E0,1.100854492E1,4.836288452E0,1.211888334E1
4.017461890E-1,1.374267578E0,1.107078552E1,5.023040771E0,1.223445308E1
4.067815900E-1,1.115692139E0,1.109951782E1,5.061340332E0,1.224994820E1
4.118169900E-1,7.422027588E-1,1.112825012E1,5.003875732E0,1.222405776E1
4.168523900E-1,3.256072998E-1,1.127668762E1,4.850646973E0,1.228000325E1
4.218572730E-1,-9.576416016E-2,1.157357788E1,4.611236572E0,1.245874707E1
4.268926740E-1,-5.889739990E-1,1.198059082E1,4.304779053E0,1.274411901E1
4.319280740E-1,-1.029510498E0,1.248336792E1,4.141967773E0,1.319281105E1
4.369634740E-1,-1.474822998E0,1.305319214E1,4.204223633E0,1.379262209E1
4.419683570E-1,-1.934509277E0,1.356555176E1,4.299987793E0,1.436162998E1
4.470037580E-1,-2.231399536E0,1.389115906E1,4.036621094E0,1.463686284E1
4.520391580E-1,-2.427719116E0,1.388636780E1,3.112457275E0,1.443649615E1
4.570745580E-1,-2.394195557E0,1.362779236E1,1.426940918E0,1.390989063E1
4.620794410E-1,-2.011123657E0,1.335006714E1,-5.841827393E-1,1.351333343E1
4.671148420E-1,-1.508346558E0,1.308670044E1,-2.480392456E0,1.340481945E1
4.721502420E-1,-1.048660278E0,1.269406128E1,-3.993530273E0,1.334867650E1
4.771551250E-1,-6.129150391E-1,1.215776062E1,-5.104431152E0,1.320007672E1
4.821905250E-1,-1.675872803E-1,1.157835388E1,-5.822692871E0,1.296110012E1
4.872259260E-1,2.346343994E-1,1.097023010E1,-6.210556030E0,1.260841021E1
4.922613260E-1,4.548950195E-1,1.035252380E1,-6.497863770E0,1.223126781E1
4.972662090E-1,4.788360596E-1,9.777923584E0,-6.636734009E0,1.182722757E1
5.023016090E-1,3.112487793E-1,9.342178345E0,-6.421249390E0,1.134044160E1
5.073370100E-1,5.746459961E-2,9.026138306E0,-5.899307251E0,1.078314893E1
5.123724100E-1,-2.681579590E-1,8.906433105E0,-5.037399292E0,1.023581218E1
5.173772930E-1,-6.129150391E-1,8.901641846E0,-4.185058594E0,9.855435446E0
5.224126930E-1,-9.768371582E-1,8.944732666E0,-3.356674194E0,9.603630300E0
5.274480940E-1,-1.182739258E0,9.117126465E0,-2.466033936E0,9.518518293E0
5.324529760E-1,-1.283294678E0,9.418792725E0,-1.651992798E0,9.648294244E0
5.374883770E-1,-1.307235718E0,9.840164185E0,-9.624633789E-1,9.973165604E0
5.425237770E-1,-1.221038818E0,1.033816528E1,-4.405364990E-1,1.041934113E1
5.475591780E-1,-1.039077759E0,1.086488342E1,-7.182312012E-2,1.091469344E1
5.525640600E-1,-7.182617188E-1,1.138682556E1,2.202606201E-1,1.141158232E1
5.575994610E-1,-3.303985596E-1,1.177468872E1,4.022216797E-1,1.178618853E1
5.626348610E-1,1.053466797E-1,1.199494934E1,4.309539795E-1,1.200315079E1
5.676702620E-1,5.075683594E-1,1.213859558E1,4.548950195E-1,1.215771598E1
5.726751440E-1,8.379669189E-1,1.213859558E1,4.118041992E-1,1.217445169E1
5.777105450E-1,1.101333618E0,1.202847290E1,3.447723389E-1,1.208370655E1
5.827459450E-1,1.264144897E0,1.181777954E1,1.867523193E-1,1.188666699E1
5.877508280E-1,1.350326538E0,1.156878662E1,-2.394104004E-2,1.164735072E1
5.927862280E-1,1.508346558E0,1.131979370E1,-2.202606201E-1,1.142196802E1
5.978216290E-1,1.771713257E0,1.105163574E1,-3.160400391E-1,1.119720955E1
6.028570290E-1,2.135635376E0,1.078347778E1,-3.160400391E-1,1.099746393E1
6.078619120E-1,2.485183716E0,1.046745300E1,-2.154846191E-1,1.076058289E1
6.128973120E-1,2.710235596E0,1.009873962E1,-2.873229980E-2,1.045613430E1
6.179327130E-1,2.911346436E0,9.792282104E0,1.580200195E-1,1.021712764E1
6.229681130E-1,3.102890015E0,9.399642944E0,3.112487793E-1,9.903438278E0
6.279729960E-1,3.227386475E0,9.074020386E0,4.692687988E-1,9.642306914E0
6.330083960E-1,3.313568115E0,8.757995605E0,5.458831787E-1,9.379776603E0
6.380437970E-1,3.294418335E0,8.465896606E0,6.129150391E-1,9.104958120E0
6.430486790E-1,3.260910034E0,8.188171387E0,6.703796387E-1,8.839066340E0
6.480840800E-1,3.193862915E0,8.001419067E0,6.991119385E-1,8.643623367E0
6.531194800E-1,3.031066895E0,7.819458008E0,7.182617188E-1,8.417077281E0
6.581548810E-1,2.834732056E0,7.709335327E0,7.517852783E-1,8.248317290E0
6.631597630E-1,2.638412476E0,7.613555908E0,7.134704590E-1,8.089282666E0
6.681951640E-1,2.422927856E0,7.556106567E0,7.182617188E-1,7.967510637E0
6.732305640E-1,2.116470337E0,7.474700928E0,7.422027588E-1,7.803939107E0
6.782659650E-1,1.905792236E0,7.441177368E0,7.613525391E-1,7.718991020E0
6.832708470E-1,1.742980957E0,7.422027588E0,8.236083984E-1,7.668298829E0
6.883062480E-1,1.532287598E0,7.407653809E0,9.289550781E-1,7.621298955E0
6.933416480E-1,1.278503418E0,7.412445068E0,1.120483398E0,7.604892894E0
6.983465310E-1,1.015136719E0,7.422027588E0,1.436523438E0,7.627620577E0
7.033819310E-1,7.948760986E-1,7.431594849E0,1.776504517E0,7.682213112E0
7.084173320E-1,4.884185791E-1,7.422027588E0,2.059020996E0,7.717811457E0
7.134527320E-1,1.053466797E-1,7.431594849E0,2.298431396E0,7.779619965E0
7.184576150E-1,-3.878631592E-1,7.393295288E0,2.523483276E0,7.821714703E0
7.234930150E-1,-8.619079590E-1,7.350204468E0,2.580947876E0,7.837709039E0
7.285284160E-1,-1.345535278E0,7.249649048E0,2.643203735E0,7.832905112E0
7.335638160E-1,-1.786071777E0,7.158660889E0,2.729385376E0,7.866766975E0
7.385686990E-1,-2.197875977E0,7.043746948E0,2.715026855E0,7.862340663E0
7.436040990E-1,-2.394195557E0,6.957550049E0,2.691085815E0,7.834642169E0
7.486395000E-1,-2.595321655E0,6.880935669E0,2.710235596E0,7.837623821E0
7.536749000E-1,-2.695877075E0,6.847412109E0,2.719818115E0,7.845522059E0
7.586797830E-1,-2.609680176E0,6.833053589E0,2.710235596E0,7.800412101E0
7.637151830E-1,-2.403778076E0,6.842636108E0,2.686294556E0,7.734080190E0
7.687505840E-1,-1.987182617E0,6.957550049E0,2.643203735E0,7.703435819E0
7.737859840E-1,-1.517929077E0,7.153869629E0,2.604888916E0,7.763208461E0
7.787908670E-1,-1.086975098E0,7.331039429E0,2.590530396E0,7.850891777E0
7.838262670E-1,-6.512298584E-1,7.541732788E0,2.628829956E0,8.013275280E0
7.888616680E-1,-2.394256592E-1,7.766784668E0,2.643203735E0,8.207727744E0
7.938970680E-1,4.788208008E-2,7.996627808E0,2.647979736E0,8.423784522E0
7.989019510E-1,2.202606201E-1,8.226470947E0,2.571365356E0,8.621789767E0
8.039373510E-1,3.303985596E-1,8.413223267E0,2.413360596E0,8.758755523E0
8.089727520E-1,4.118041992E-1,8.638275146E0,2.284072876E0,8.944627947E0
8.139776350E-1,4.357452393E-1,8.844177246E0,2.149993896E0,9.112179697E0
8.190130350E-1,4.165954590E-1,9.040512085E0,2.087738037E0,9.287790945E0
8.240484350E-1,3.734893799E-1,9.241622925E0,2.059020996E0,9.475582096E0
8.290838360E-1,3.160400391E-1,9.414001465E0,2.049438477E0,9.639683758E0
8.340887190E-1,2.059020996E-1,9.548080444E0,2.039855957E0,9.765718006E0
8.391241190E-1,4.788208008E-2,9.619903564E0,2.054229736E0,9.836904853E0
8.441595190E-1,-4.791259766E-3,9.677368164E0,2.106903076E0,9.904065736E0
8.491949200E-1,-1.101379395E-1,9.696517944E0,2.221817017E0,9.948420049E0
8.541998030E-1,-1.675872803E-1,9.734817505E0,2.427719116E0,1.003436981E1
8.592352030E-1,-2.106933594E-1,9.797073364E0,2.729385376E0,1.017234401E1
8.642706030E-1,-2.489929199E-1,9.912002563E0,3.078948975E0,1.038218277E1
8.693060040E-1,-3.208160400E-1,1.008438110E1,3.505111694E0,1.068098653E1
8.743108870E-1,-3.256072998E-1,1.035252380E1,3.902542114E0,1.106845085E1
8.793462870E-1,-3.926544189E-1,1.064462280E1,4.161117554E0,1.143578031E1
8.843816870E-1,-4.501037598E-1,1.093193054E1,4.261672974E0,1.174187188E1
8.894170880E-1,-6.177062988E-1,1.122401428E1,4.280838013E0,1.202853407E1
8.944219710E-1,-8.188171387E-1,1.152090454E1,4.228164673E0,1.229955607E1
8.994573710E-1,-1.158798218E0,1.181298828E1,4.165908813E0,1.257951914E1
9.044927710E-1,-1.561019897E0,1.211944580E1,4.113235474E0,1.289327172E1
9.095281720E-1,-2.006347656E0,1.237322998E1,4.041412354E0,1.317024164E1
9.145330540E-1,-2.580947876E0,1.253604126E1,4.041412354E0,1.342187156E1
9.195684550E-1,-3.088516235E0,1.265095520E1,4.036621094E0,1.363377827E1
9.246038550E-1,-3.433288574E0,1.274194336E1,4.108444214E0,1.382113978E1
9.296392560E-1,-3.533843994E0,1.287123108E1,4.223373413E0,1.399976878E1
9.346441380E-1,-3.447647095E0,1.306755066E1,4.338287354E0,1.419393842E1
9.396795390E-1,-3.270477295E0,1.327824402E1,4.338287354E0,1.434672517E1
9.447149390E-1,-3.011901855E0,1.347935486E1,4.185058594E0,1.443188399E1
9.497198220E-1,-2.576156616E0,1.366131592E1,4.146759033E0,1.450736868E1
9.547552220E-1,-1.939300537E0,1.384327698E1,4.046203613E0,1.455228394E1
9.597906230E-1,-1.417373657E0,1.389115906E1,3.552993774E0,1.440822726E1
9.648260230E-1,-1.115692139E0,1.387200928E1,2.422927856E0,1.412614561E1
9.698309060E-1,-9.576873779E-1,1.385763550E1,7.469940186E-1,1.391075939E1
9.748663060E-1,-7.422027588E-1,1.384327698E1,-1.101333618E0,1.390683710E1
9.799017070E-1,-3.830718994E-1,1.377622986E1,-2.782058716E0,1.405955561E1
9.849371070E-1,-7.182312012E-2,1.358949280E1,-3.940856934E0,1.414955216E1
9.899419900E-1,2.633666992E-1,1.331176758E1,-4.707000732E0,1.412191113E1
9.949773900E-1,4.405364990E-1,1.283291626E1,-5.243301392E0,1.386975204E1
1.000012791E0,4.070129395E-1,1.229661560E1,-5.621582031E0,1.352681039E1
1.005048191E0,2.968750000E-1,1.165019226E1,-5.966354370E0,1.309245962E1
1.010053074E0,9.576416016E-2,1.090319824E1,-6.291961670E0,1.258879201E1
1.015088474E0,1.197052002E-1,1.020887756E1,-6.435607910E0,1.206866022E1
1.020123875E0,3.926544189E-1,9.595962524E0,-6.301544189E0,1.148678081E1
1.025159275E0,6.991119385E-1,9.074020386E0,-5.837066650E0,1.081193556E1
1.030164158E0,9.911956787E-1,8.652648926E0,-5.042190552E0,1.006352264E1
1.035199558E0,1.388641357E0,8.384490967E0,-4.022262573E0,9.402478918E0
1.040234959E0,1.680725098E0,8.212112427E0,-2.935287476E0,8.881415424E0
1.045270359E0,1.872268677E0,8.101974487E0,-1.924942017E0,8.535384137E0
1.050275242E0,1.977615356E0,8.068466187E0,-1.005569458E0,8.367931586E0
1.055310642E0,1.963241577E0,8.149856567E0,-1.867523193E-1,8.385067441E0
1.060346043E0,1.757339478E0,8.331817627E0,8.092346191E-1,8.553495641E0
1.065350926E0,1.412582397E0,8.556884766E0,1.695098877E0,8.836799541E0
1.070386326E0,9.672546387E-1,8.801086426E0,2.360687256E0,9.163380824E0
1.075421726E0,3.495483398E-1,9.050079346E0,2.973602295E0,9.532493421E0
1.080457127E0,-3.256072998E-1,9.275131226E0,3.438079834E0,9.897195174E0
1.085462010E0,-1.053451538E0,9.433151245E0,3.672698975E0,1.017756456E1
1.090497410E0,-1.747772217E0,9.572021484E0,3.600875854E0,1.037519204E1
1.095532810E0,-2.169143677E0,9.720458984E0,3.208236694E0,1.046352187E1
1.100568211E0,-2.475601196E0,9.849746704E0,2.552215576E0,1.047186305E1
1.105573094E0,-3.069366455E0,9.935943604E0,1.910568237E0,1.057328032E1
1.110608494E0,-3.773254395E0,1.001733398E1,1.283294678E0,1.078106090E1
1.115643894E0,-4.386184692E0,1.008438110E1,6.607971191E-1,1.101680585E1
1.120679295E0,-4.869812012E0,1.014662170E1,2.873229980E-2,1.125476906E1
1.125684178E0,-5.209777832E0,1.016578674E1,-6.368560791E-1,1.144074258E1
1.130719578E0,-5.410888672E0,1.012268066E1,-1.335968018E0,1.155556968E1
1.135754978E0,-5.396530151E0,1.000776672E1,-1.920150757E0,1.153104121E1
1.140790379E0,-5.195419312E0,9.840164185E0,-2.317581177E0,1.136628328E1
1.145795262E0,-4.817138672E0,9.639053345E0,-2.470809937E0,1.105536413E1
1.150830662E0,-4.357452393E0,9.332595825E0,-2.456451416E0,1.058862077E1
1.155866062E0,-3.763687134E0,9.021347046E0,-2.221817017E0,1.002429620E1
1.160901463E0,-3.074157715E0,8.671798706E0,-1.738189697E0,9.363324296E0
1.165906346E0,-2.528274536E0,8.283935547E0,-1.297653198E0,8.757834441E0
1.170941746E0,-1.910568237E0,7.929595947E0,-8.044586182E-1,8.196091541E0
1.175977146E0,-1.201889038E0,7.594406128E0,-2.489929199E-1,7.692953865E0
1.181012547E0,-6.464385986E-1,7.297531128E0,2.346343994E-1,7.329863350E0
1.186017429E0,-2.537841797E-1,7.058105469E0,7.565612793E-1,7.103072869E0
1.191052830E0,1.388702393E-1,6.866577148E0,1.192306519E0,6.970707390E0
1.196088230E0,3.303985596E-1,6.718124390E0,1.508346558E0,6.893291511E0
1.201123631E0,5.602416992E-1,6.631942749E0,1.790863037E0,6.892294669E0
1.206128513E0,7.374114990E-1,6.631942749E0,2.054229736E0,6.981855065E0
1.211163914E0,8.236083984E-1,6.655883789E0,2.212249756E0,7.062093796E0
1.216199314E0,1.000778198E0,6.742065430E0,2.279281616E0,7.186941488E0
1.221204197E0,1.034301758E0,6.876144409E0,2.293640137E0,7.322016603E0
1.226239597E0,1.106124878E0,7.015014648E0,2.341522217E0,7.477744918E0
1.231274998E0,1.201889038E0,7.173034668E0,2.317581177E0,7.633357460E0
1.236310398E0,1.264144897E0,7.331039429E0,2.284072876E0,7.781978561E0
1.241315281E0,1.374267578E0,7.484268188E0,2.178726196E0,7.915158213E0
1.246350681E0,1.608901978E0,7.656661987E0,2.011123657E0,8.078221136E0
1.251386082E0,1.786071777E0,7.762008667E0,1.901000977E0,8.188567375E0
1.256421482E0,1.929733276E0,7.819458008E0,1.838745117E0,8.261281841E0
1.261426365E0,2.082962036E0,7.876922607E0,1.771713257E0,8.338081822E0
1.266461765E0,2.188293457E0,7.886505127E0,1.738189697E0,8.367012298E0
1.271497166E0,2.231399536E0,7.900863647E0,1.671157837E0,8.378278987E0
1.276532566E0,2.149993896E0,7.876922607E0,1.623275757E0,8.324866828E0
1.281537449E0,1.867477417E0,7.824249268E0,1.613693237E0,8.204288779E0
1.286572849E0,1.493988037E0,7.838623047E0,1.594543457E0,8.137479976E0
1.291608250E0,1.240203857E0,7.886505127E0,1.561019897E0,8.134608279E0
1.296643650E0,1.091751099E0,7.920013428E0,1.570602417E0,8.147719013E0
1.301648533E0,9.528961182E-1,7.972686768E0,1.594543457E0,8.186227101E0
1.306683933E0,7.805023193E-1,8.006210327E0,1.661575317E0,8.213977125E0
1.311719334E0,6.320648193E-1,8.054092407E0,1.728607178E0,8.261718539E0
1.316754734E0,5.075683594E-1,8.111557007E0,1.790863037E0,8.322389869E0
1.321759617E0,3.878631592E-1,8.202529907E0,1.867477417E0,8.421366078E0
1.326795017E0,2.537841797E-1,8.322250366E0,1.953674316E0,8.552257065E0
1.331830418E0,1.580200195E-1,8.489837646E0,2.006347656E0,8.725121461E0
1.336865818E0,1.053466797E-1,8.676589966E0,2.044647217E0,8.914869242E0
1.341870701E0,1.340789795E-1,8.973464966E0,2.097320557E0,9.216279303E0
1.346906101E0,1.101379395E-1,9.284713745E0,2.092529297E0,9.518230852E0
1.351941502E0,8.619689941E-2,9.653427124E0,2.121261597E0,9.884120391E0
1.356976902E0,7.661437988E-2,1.005564880E1,2.130844116E0,1.027922367E1
1.361981785E0,5.267333984E-2,1.050097656E1,2.159576416E0,1.072087000E1
1.367017185E0,4.791259766E-3,1.092713928E1,2.164352417E0,1.113942625E1
1.372052586E0,-6.225585938E-2,1.130541992E1,2.240966797E0,1.152555108E1
1.377087986E0,-7.182312012E-2,1.167890930E1,2.331954956E0,1.190966393E1
1.382092869E0,-2.394104004E-2,1.196142578E1,2.461242676E0,1.221204305E1
1.387128269E0,6.225585938E-2,1.217691040E1,2.624038696E0,1.245658869E1
1.392163670E0,2.298431396E-1,1.233493042E1,2.873046875E0,1.266719127E1
1.397199070E0,4.692687988E-1,1.245942688E1,3.145980835E0,1.285903289E1
1.402203953E0,7.517852783E-1,1.252645874E1,3.471588135E0,1.302034077E1
